<?xml version="1.0" encoding="UTF-8"?>
<kml xmlns="http://www.opengis.net/kml/2.2">
  <Document id="root_doc">
    <Schema id="wikidata_Q13110823.schema">
      <SimpleField name="fid" type="int"/>
      <SimpleField name="Name-ml" type="string"/>
      <SimpleField name="id" type="string"/>
      <SimpleField name="@id" type="string"/>
      <SimpleField name="admin_level" type="string"/>
      <SimpleField name="boundary" type="string"/>
      <SimpleField name="local_authority:IN" type="string"/>
      <SimpleField name="type" type="string"/>
      <SimpleField name="wikidata" type="string"/>
      <SimpleField name="population" type="string"/>
      <SimpleField name="ns" type="string"/>
      <SimpleField name="@relations" type="string"/>
      <SimpleField name="LSG Code" type="string"/>
      <SimpleField name="Assembly" type="string"/>
      <SimpleField name="District" type="string"/>
    </Schema>
    <Document id="wikidata_Q13110823">
      <name>wikidata_Q13110823</name>
      <Placemark id="wikidata_Q13110823.1">
        <name>ottasekharamangalam</name>
        <ExtendedData>
          <SchemaData schemaUrl="#wikidata_Q13110823.schema">
            <SimpleData name="fid">951</SimpleData>
            <SimpleData name="Name-ml">ഒറ്റശേഖരമംഗലം ഗ്രാമപഞ്ചായത്ത്</SimpleData>
            <SimpleData name="id">relation/11492292</SimpleData>
            <SimpleData name="@id">relation/11492292</SimpleData>
            <SimpleData name="admin_level">8</SimpleData>
            <SimpleData name="boundary">local_authority</SimpleData>
            <SimpleData name="local_authority:IN">gram_panchayat</SimpleData>
            <SimpleData name="type">boundary</SimpleData>
            <SimpleData name="wikidata">Q13110823</SimpleData>
            <SimpleData name="LSG Code">G010903</SimpleData>
            <SimpleData name="Assembly">പാറശ്ശാല</SimpleData>
            <SimpleData name="District">Thiruvananthapuram</SimpleData>
          </SchemaData>
        </ExtendedData>
        <Polygon>
          <outerBoundaryIs>
            <LinearRing>
              <coordinates>
                77.1774508,8.4773508,0
                77.1771097,8.4792699,0
                77.1766698,8.4803947,0
                77.1763909,8.4814665,0
                77.1758115,8.4824427,0
                77.1755969,8.4831537,0
                77.1760154,8.483854,0
                77.176702,8.4843209,0
                77.177335,8.4846605,0
                77.1781182,8.4849682,0
                77.177732,8.4857429,0
                77.1771741,8.4864432,0
                77.1762514,8.4872709,0
                77.1746206,8.4878652,0
                77.1729898,8.4893295,0
                77.1710372,8.4923855,0
                77.1671104,8.4982747,0
                77.1664131,8.4991236,0
                77.1650183,8.5016384,0
                77.1644068,8.502986,0
                77.1642136,8.5035377,0
                77.1637952,8.5044609,0
                77.1630978,8.5052461,0
                77.1615744,8.5061692,0
                77.1601581,8.5070499,0
                77.1589136,8.5079412,0
                77.1577334,8.5085885,0
                77.1561348,8.5088007,0
                77.1544182,8.5087901,0
                77.1509528,8.5087052,0
                77.1502554,8.5088113,0
                77.1491718,8.5091615,0
                77.1481955,8.5096496,0
                77.1479916,8.5102225,0
                77.1479487,8.5110608,0
                77.1478307,8.512228,0
                77.147187,8.5140954,0
                77.1468866,8.5146896,0
                77.1464682,8.5152732,0
                77.1459371,8.51587,0
                77.1457815,8.5160266,0
                77.1452451,8.5165783,0
                77.1449554,8.5168436,0
                77.1443546,8.517268,0
                77.1438718,8.5170876,0
                77.1435606,8.5165995,0
                77.1433675,8.5161327,0
                77.1430564,8.5156552,0
                77.1425521,8.5153369,0
                77.1418118,8.515061,0
                77.1401274,8.5151034,0
                77.1388721,8.5150079,0
                77.1380567,8.5148912,0
                77.1375847,8.5144986,0
                77.1368122,8.5140742,0
                77.1362007,8.5140106,0
                77.1357179,8.5143819,0
                77.135396,8.5150292,0
                77.1351278,8.516016,0
                77.1351814,8.5169603,0
                77.1347415,8.5173104,0
                77.1330786,8.517268,0
                77.1323597,8.5171725,0
                77.1315336,8.5171407,0
                77.1309757,8.5168648,0
                77.1303213,8.516504,0
                77.1297741,8.5162706,0
                77.1294844,8.5156764,0
                77.1293664,8.5147533,0
                77.1291196,8.5142334,0
                77.1286905,8.5138514,0
                77.1278107,8.5133421,0
                77.1268773,8.5136392,0
                77.1262658,8.5142122,0
                77.1254504,8.5144031,0
                77.1241522,8.5149231,0
                77.1229505,8.512801,0
                77.1225214,8.5125039,0
                77.1218776,8.5128858,0
                77.1213841,8.5135013,0
                77.1209121,8.5139681,0
                77.1202469,8.5137559,0
                77.1199894,8.5132466,0
                77.1195602,8.5119309,0
                77.1190023,8.511464,0
                77.11838,8.5108486,0
                77.1184873,8.5090872,0
                77.1173715,8.5084293,0
                77.1167707,8.5076441,0
                77.116878,8.5067953,0
                77.1173072,8.5058403,0
                77.1175003,8.5049914,0
                77.1177149,8.5040152,0
                77.1176719,8.5030815,0
                77.1177363,8.5019143,0
                77.1181011,8.5011079,0
                77.1190023,8.5001741,0
                77.1194315,8.4993464,0
                77.1197319,8.498158,0
                77.119925,8.4969271,0
                77.120204,8.4956326,0
                77.1212768,8.4944441,0
                77.1230364,8.4936801,0
                77.1236694,8.492863,0
                77.1241736,8.4915473,0
                77.1240878,8.491091,0
                77.1239054,8.4908151,0
                77.1236157,8.4906559,0
                77.12309,8.4907726,0
                77.1225321,8.4909424,0
                77.1220386,8.4912183,0
                77.1211481,8.4915473,0
                77.1205366,8.4916746,0
                77.1198928,8.4915579,0
                77.1191418,8.4913669,0
                77.1189487,8.4910485,0
                77.1189058,8.4905498,0
                77.1189058,8.4904225,0
                77.1193457,8.4902739,0
                77.1196353,8.4902421,0
                77.1201718,8.490189,0
                77.1206653,8.4900723,0
                77.1212125,8.4897752,0
                77.121427,8.4891703,0
                77.121309,8.4883851,0
                77.1212447,8.4880349,0
                77.1211803,8.4875574,0
                77.1213198,8.4871542,0
                77.1218026,8.4862098,0
                77.122339,8.4858384,0
                77.1231329,8.485467,0
                77.1235621,8.4848091,0
                77.1240556,8.4832174,0
                77.1242916,8.482517,0
                77.1246028,8.4811057,0
                77.1247423,8.4801931,0
                77.1243775,8.4790046,0
                77.1240556,8.4781981,0
                77.1239483,8.47771,0
                77.1248388,8.4774765,0
                77.1267378,8.4773173,0
                77.1279824,8.4778585,0
                77.129581,8.4783148,0
                77.1301281,8.478474,0
                77.1309113,8.4785801,0
                77.1315765,8.4786544,0
                77.1323597,8.4783679,0
                77.132982,8.4783785,0
                77.1335399,8.4786756,0
                77.1337867,8.4793123,0
                77.1342587,8.4797898,0
                77.1347844,8.4797474,0
                77.1354175,8.4792805,0
                77.1357715,8.4788242,0
                77.1361041,8.4783042,0
                77.137295,8.4791319,0
                77.1379709,8.4811481,0
                77.138561,8.4820183,0
                77.1392691,8.4826337,0
                77.1401918,8.4834614,0
                77.1409535,8.4840981,0
                77.1415329,8.4842042,0
                77.1421015,8.4834508,0
                77.1424448,8.4825594,0
                77.1425736,8.4818803,0
                77.142874,8.4813603,0
                77.1435285,8.4816575,0
                77.1441615,8.4822517,0
                77.144537,8.482846,0
                77.1444991,8.4832107,0
                77.1444189,8.4839814,0
                77.1447837,8.4849576,0
                77.1453738,8.4854564,0
                77.1459961,8.4858808,0
                77.1464145,8.48604,0
                77.1474016,8.4860506,0
                77.1478414,8.4864114,0
                77.1479916,8.4870481,0
                77.1482813,8.4879076,0
                77.1486246,8.4886079,0
                77.1488821,8.4888095,0
                77.1496224,8.4887034,0
                77.149955,8.4881623,0
                77.1502554,8.4874619,0
                77.1503013,8.4874207,0
                77.1507919,8.4867297,0
                77.1508648,8.4867227,0
                77.1521115,8.4866024,0
                77.1530557,8.4867509,0
                77.1536672,8.4870587,0
                77.1545255,8.4876317,0
                77.1551585,8.4878864,0
                77.1557057,8.4875362,0
                77.1561456,8.4870587,0
                77.1569288,8.4868146,0
                77.1575618,8.4869101,0
                77.158581,8.4871436,0
                77.1606195,8.4863371,0
                77.1611988,8.486093,0
                77.1615314,8.485849,0
                77.1621966,8.4853609,0
                77.1629369,8.4851062,0
                77.1637845,8.4849895,0
                77.1646321,8.4849895,0
                77.1654153,8.4850744,0
                77.1668422,8.4850531,0
                77.1674538,8.4846287,0
                77.1682477,8.4835145,0
                77.1702111,8.481615,0
                77.1710157,8.4811481,0
                77.1728289,8.479949,0
                77.1740949,8.4800233,0
                77.1746421,8.4798853,0
                77.1755111,8.4790895,0
                77.1758437,8.478665,0
                77.1760476,8.4784316,0
                77.1774508,8.4773508,0
              </coordinates>
            </LinearRing>
          </outerBoundaryIs>
        </Polygon>
      </Placemark>
    </Document>
  </Document>
</kml>
