<?xml version="1.0" encoding="UTF-8"?>
<kml xmlns="http://www.opengis.net/kml/2.2">
  <Document id="root_doc">
    <Schema id="wikidata_Q13114365.schema">
      <SimpleField name="fid" type="int"/>
      <SimpleField name="Name-ml" type="string"/>
      <SimpleField name="id" type="string"/>
      <SimpleField name="@id" type="string"/>
      <SimpleField name="admin_level" type="string"/>
      <SimpleField name="boundary" type="string"/>
      <SimpleField name="local_authority:IN" type="string"/>
      <SimpleField name="type" type="string"/>
      <SimpleField name="wikidata" type="string"/>
      <SimpleField name="population" type="string"/>
      <SimpleField name="ns" type="string"/>
      <SimpleField name="@relations" type="string"/>
      <SimpleField name="LSG Code" type="string"/>
      <SimpleField name="Assembly" type="string"/>
      <SimpleField name="District" type="string"/>
    </Schema>
    <Document id="wikidata_Q13114365">
      <name>wikidata_Q13114365</name>
      <Placemark id="wikidata_Q13114365.1">
        <name>ramankary</name>
        <ExtendedData>
          <SchemaData schemaUrl="#wikidata_Q13114365.schema">
            <SimpleData name="fid">709</SimpleData>
            <SimpleData name="Name-ml">രാമങ്കരി ഗ്രാമപഞ്ചായത്ത്</SimpleData>
            <SimpleData name="id">relation/11384413</SimpleData>
            <SimpleData name="@id">relation/11384413</SimpleData>
            <SimpleData name="admin_level">8</SimpleData>
            <SimpleData name="boundary">local_authority</SimpleData>
            <SimpleData name="local_authority:IN">gram_panchayat</SimpleData>
            <SimpleData name="type">boundary</SimpleData>
            <SimpleData name="wikidata">Q13114365</SimpleData>
            <SimpleData name="LSG Code">G040706</SimpleData>
            <SimpleData name="Assembly">കുട്ടനാട്</SimpleData>
            <SimpleData name="District">Alappuzha</SimpleData>
          </SchemaData>
        </ExtendedData>
        <Polygon>
          <outerBoundaryIs>
            <LinearRing>
              <coordinates>
                76.4976525,9.4138178,0
                76.4967084,9.4160616,0
                76.4957428,9.4173318,0
                76.4922023,9.4202107,0
                76.4901638,9.4215866,0
                76.4878893,9.422645,0
                76.486752,9.4226873,0
                76.4850998,9.4224122,0
                76.4829325,9.4233012,0
                76.4814734,9.4250582,0
                76.4796066,9.4270903,0
                76.4781689,9.4281487,0
                76.4739847,9.4309852,0
                76.4717316,9.4320224,0
                76.4693713,9.4328479,0
                76.4667749,9.4340333,0
                76.4632988,9.4363617,0
                76.4605522,9.4385843,0
                76.457634,9.4415265,0
                76.4543188,9.4443205,0
                76.4531922,9.4427118,0
                76.4528274,9.4422673,0
                76.4523124,9.4415265,0
                76.4514541,9.4410608,0
                76.4504671,9.440955,0
                76.4499736,9.4400871,0
                76.4493298,9.4386266,0
                76.4480209,9.4366157,0
                76.4475488,9.4354938,0
                76.447742,9.4342661,0
                76.447699,9.4325727,0
                76.4470982,9.4299056,0
                76.4456177,9.4268574,0
                76.4449954,9.4253333,0
                76.4440512,9.4236399,0
                76.4430856,9.422264,0
                76.4419055,9.4204012,0
                76.4411115,9.4170354,0
                76.4433431,9.4162733,0
                76.4434504,9.4148339,0
                76.4433217,9.413098,0
                76.44315,9.4121878,0
                76.4443517,9.4114892,0
                76.4439869,9.4087584,0
                76.4444804,9.4081022,0
                76.44521,9.4073613,0
                76.4456606,9.4065992,0
                76.4453816,9.4057736,0
                76.4450168,9.404821,0
                76.4448023,9.4036355,0
                76.4446521,9.402577,0
                76.4448666,9.4014127,0
                76.4450266,9.4007813,0
                76.4458322,9.4006082,0
                76.447699,9.4004601,0
                76.4494586,9.4001425,0
                76.4514112,9.3996345,0
                76.4534282,9.3991052,0
                76.4562607,9.3983643,0
                76.4611959,9.3965225,0
                76.4632988,9.3960144,0
                76.4661097,9.3951253,0
                76.468277,9.3944055,0
                76.4707017,9.3933682,0
                76.4735985,9.3923097,0
                76.4764952,9.3911877,0
                76.4780831,9.3902985,0
                76.4808941,9.3941515,0
                76.4784479,9.395591,0
                76.4768386,9.3963955,0
                76.4746499,9.3978774,0
                76.4722037,9.399952,0
                76.4695215,9.4009681,0
                76.4696717,9.4021748,0
                76.4696288,9.4037625,0
                76.4696717,9.4052443,0
                76.4691782,9.4055619,0
                76.4683413,9.4059429,0
                76.4675045,9.4063663,0
                76.4662814,9.4070014,0
                76.4651441,9.4074036,0
                76.4663887,9.4089066,0
                76.467762,9.410833,0
                76.4684486,9.4123148,0
                76.468749,9.4135637,0
                76.468749,9.4147492,0
                76.4685774,9.4157653,0
                76.4685988,9.4167602,0
                76.4688563,9.4181573,0
                76.4695644,9.4190887,0
                76.4704871,9.4196814,0
                76.4719462,9.4199355,0
                76.4735126,9.4195544,0
                76.4757871,9.4184537,0
                76.47686,9.4171412,0
                76.4784479,9.4136696,0
                76.4797139,9.412336,0
                76.4805507,9.4116162,0
                76.4814734,9.4108541,0
                76.4825892,9.4101344,0
                76.4833402,9.4093511,0
                76.4839625,9.4077846,0
                76.4846921,9.4072131,0
                76.4859795,9.4071284,0
                76.4873314,9.4072131,0
                76.4886403,9.4080598,0
                76.4903354,9.4085679,0
                76.4931464,9.4081657,0
                76.4943266,9.4089701,0
                76.4961076,9.4111293,0
                76.4976525,9.4138178,0
              </coordinates>
            </LinearRing>
          </outerBoundaryIs>
        </Polygon>
      </Placemark>
    </Document>
  </Document>
</kml>
