<?xml version="1.0" encoding="UTF-8"?>
<kml xmlns="http://www.opengis.net/kml/2.2">
  <Document id="root_doc">
    <Schema id="wikidata_Q13111326.schema">
      <SimpleField name="fid" type="int"/>
      <SimpleField name="Name-ml" type="string"/>
      <SimpleField name="id" type="string"/>
      <SimpleField name="@id" type="string"/>
      <SimpleField name="admin_level" type="string"/>
      <SimpleField name="boundary" type="string"/>
      <SimpleField name="local_authority:IN" type="string"/>
      <SimpleField name="type" type="string"/>
      <SimpleField name="wikidata" type="string"/>
      <SimpleField name="population" type="string"/>
      <SimpleField name="ns" type="string"/>
      <SimpleField name="@relations" type="string"/>
      <SimpleField name="LSG Code" type="string"/>
      <SimpleField name="Assembly" type="string"/>
      <SimpleField name="District" type="string"/>
    </Schema>
    <Document id="wikidata_Q13111326">
      <name>wikidata_Q13111326</name>
      <Placemark id="wikidata_Q13111326.1">
        <name>kumaramangalam</name>
        <ExtendedData>
          <SchemaData schemaUrl="#wikidata_Q13111326.schema">
            <SimpleData name="fid">672</SimpleData>
            <SimpleData name="Name-ml">കുമാരമംഗലം ഗ്രാമപഞ്ചായത്ത്</SimpleData>
            <SimpleData name="id">relation/11377776</SimpleData>
            <SimpleData name="@id">relation/11377776</SimpleData>
            <SimpleData name="admin_level">8</SimpleData>
            <SimpleData name="boundary">local_authority</SimpleData>
            <SimpleData name="local_authority:IN">gram_panchayat</SimpleData>
            <SimpleData name="type">boundary</SimpleData>
            <SimpleData name="wikidata">Q13111326</SimpleData>
            <SimpleData name="LSG Code">G060702</SimpleData>
            <SimpleData name="Assembly">തൊടുപുഴ</SimpleData>
            <SimpleData name="District">Idukki</SimpleData>
          </SchemaData>
        </ExtendedData>
        <Polygon>
          <outerBoundaryIs>
            <LinearRing>
              <coordinates>
                76.7289769,9.9829804,0
                76.7270779,9.9818793,0
                76.7239773,9.9809177,0
                76.7230868,9.9813087,0
                76.72122,9.9828409,0
                76.7175062,9.9864452,0
                76.7158126,9.981742,0
                76.7118352,9.9796556,0
                76.7125511,9.9725279,0
                76.7156839,9.9707527,0
                76.7165851,9.968597,0
                76.7162847,9.9648775,0
                76.7195892,9.9604816,0
                76.7220354,9.9581568,0
                76.7249965,9.9560434,0
                76.7233228,9.9533381,0
                76.722207,9.9521546,0
                76.7199754,9.950802,0
                76.7172718,9.9530845,0
                76.7158341,9.9538982,0
                76.7143856,9.9537272,0
                76.7127228,9.953169,0
                76.7117035,9.9514888,0
                76.7111993,9.9491745,0
                76.7130232,9.947209,0
                76.7152762,9.9461311,0
                76.7146754,9.9427283,0
                76.7130446,9.9430665,0
                76.7112207,9.9447996,0
                76.7097831,9.9441232,0
                76.7102122,9.9417772,0
                76.7061192,9.9412911,0
                76.7042094,9.9392093,0
                76.7031097,9.9362239,0
                76.7013663,9.9342582,0
                76.7009105,9.9322768,0
                76.7004727,9.931207,0
                76.6996657,9.929455,0
                76.6979492,9.9285779,0
                76.6975736,9.9303956,0
                76.6957283,9.9315052,0
                76.6916942,9.9323507,0
                76.6909276,9.9305104,0
                76.6893231,9.9271406,0
                76.6870648,9.9273995,0
                76.6859651,9.926702,0
                76.6838515,9.9246412,0
                76.6836798,9.9235738,0
                76.684722,9.9227962,0
                76.6886473,9.9233466,0
                76.691426,9.921793,0
                76.6936254,9.9202395,0
                76.6925955,9.9185485,0
                76.6935825,9.9167308,0
                76.6942692,9.9158853,0
                76.6963721,9.9162446,0
                76.6981745,9.9182949,0
                76.7001056,9.917999,0
                76.7013287,9.9165194,0
                76.7003632,9.9157162,0
                76.6978955,9.9151243,0
                76.6977131,9.9127676,0
                76.6977882,9.9121607,0
                76.6977239,9.9101782,0
                76.6984534,9.9098083,0
                76.6994834,9.9088254,0
                76.6999447,9.9084238,0
                76.7003202,9.9078531,0
                76.7006206,9.9072718,0
                76.7010069,9.906236,0
                76.7014468,9.9054751,0
                76.7022085,9.9048726,0
                76.7031312,9.904397,0
                76.7040968,9.9054856,0
                76.7085171,9.908762,0
                76.7094183,9.9093116,0
                76.7104697,9.9097766,0
                76.7117357,9.9099668,0
                76.7120147,9.9110448,0
                76.7120361,9.9120383,0
                76.7121863,9.9132008,0
                76.7125726,9.9142788,0
                76.715126,9.9161178,0
                76.7170357,9.9174706,0
                76.7188811,9.9188022,0
                76.7202544,9.9197322,0
                76.72122,9.9210004,0
                76.7211342,9.9223743,0
                76.7244172,9.9252489,0
                76.7258334,9.9268764,0
                76.72652,9.9278487,0
                76.7272281,9.9292648,0
                76.7282152,9.9307232,0
                76.7280865,9.9318646,0
                76.7281508,9.9331327,0
                76.7282581,9.9343375,0
                76.7282152,9.9359861,0
                76.7287946,9.9363454,0
                76.730597,9.9363665,0
                76.7321634,9.9375501,0
                76.7334723,9.937529,0
                76.7342663,9.9376347,0
                76.7350173,9.9376769,0
                76.7357254,9.9376981,0
                76.7367339,9.9376769,0
                76.7371845,9.9380574,0
                76.737206,9.9391353,0
                76.7371845,9.9401075,0
                76.737206,9.9411009,0
                76.7373347,9.9419463,0
                76.7379355,9.9426649,0
                76.7392444,9.9436583,0
                76.7410898,9.9468286,0
                76.7411756,9.9496184,0
                76.7406177,9.9522391,0
                76.7396307,9.9545217,0
                76.7380428,9.9558743,0
                76.7367553,9.9578187,0
                76.7373561,9.9606084,0
                76.7369699,9.9626796,0
                76.73491,9.9638208,0
                76.7337083,9.9651311,0
                76.7325067,9.9665259,0
                76.7324638,9.9678785,0
                76.7330217,9.9699919,0
                76.7332363,9.9719784,0
                76.7335796,9.9751484,0
                76.7322492,9.977135,0
                76.7306184,9.9797977,0
                76.7289769,9.9829804,0
              </coordinates>
            </LinearRing>
          </outerBoundaryIs>
        </Polygon>
      </Placemark>
    </Document>
  </Document>
</kml>
